NodeID,x,y,z,phi,theta,psi,u,v,w,p,q,r,delta_e,delta_a,delta_r,duration,cost
0,0,0,-100,0,0,0,20,0,0,0,0,0,0,0,0,0,229.129
1,1.99874,-8.69252e-05,-99.9668,-0.00579876,-0.03077,-0.00365449,19.9864,0.0704474,0.0460328,-0.117242,-0.616532,-0.0718216,0.113769,-0.0661921,0.00625922,0.1,227.372
2,3.99522,-0.00073052,-99.8605,-0.0259626,-0.129622,-0.00416188,19.9832,0.10068,-1.0575,-0.283308,-1.33764,0.0268685,0.147233,0.030724,-0.0862449,0.1,225.588
3,5.98689,-0.00132762,-99.6406,-0.0626468,-0.289665,-0.00454244,19.8849,0.269163,-2.81011,-0.454874,-1.82195,-0.170129,0.139173,-0.147637,0.0436363,0.1,223.761
4,7.96015,0.00168696,-99.2421,-0.0907981,-0.486207,-0.00505662,19.6705,0.587283,-4.59333,-0.120225,-2.05799,-0.134298,0.137103,0.0238637,0.11704,0.1,221.875
5,9.88709,0.0145056,-98.6058,-0.112411,-0.615269,0.00688144,19.8594,0.588765,-4.67208,-0.183607,-0.524011,0.0792657,-0.160534,0.0474976,-0.0299953,0.1,219.926
6,11.7503,0.0392192,-97.7364,-0.124917,-0.592893,0.021756,20.6305,0.181442,-2.28499,0.117075,0.892242,0.200336,-0.164695,0.0677826,0.0733068,0.1,217.932
7,13.5813,0.0700431,-96.7133,-0.129065,-0.540235,0.0307,21.2006,-0.217921,-0.254355,-0.0963139,0.0815083,0.0682171,0.165013,-0.0907835,-0.00992607,0.1,215.899
8,15.4189,0.0998862,-95.6096,-0.133134,-0.49419,0.0128663,21.6408,-0.119351,1.14725,-0.167467,0.846472,-0.245165,-0.134487,-0.160696,0.0866347,0.1,213.826
9,17.2918,0.120665,-94.4741,-0.133023,-0.478824,-0.0243755,22.0737,0.40311,1.45365,-0.182107,-0.470651,-0.35051,0.172833,-0.0871098,0.0694087,0.1,211.707
10,19.2083,0.125005,-93.3235,-0.16636,-0.483703,-0.0482948,22.5235,0.652826,1.40935,-0.710071,0.441583,-0.0653304,-0.166427,-0.000555706,-0.137761,0.1,209.541
11,21.1672,0.105659,-92.1568,-0.284226,-0.492796,-0.049578,22.9916,0.34952,1.12046,-1.64182,-0.613715,-0.0437216,0.122044,-0.159641,-0.153148,0.1,207.327
12,23.1633,0.0578093,-90.9654,-0.43084,-0.502487,-0.0544413,23.4534,0.0435422,1.01874,-1.33142,0.473104,-0.0756465,-0.170874,-0.020254,0.0724319,0.1,205.065
13,25.195,-0.0311933,-89.7492,-0.53263,-0.433171,-0.120551,23.7585,-0.132855,2.69165,-1.29921,1.27227,-0.305907,-0.144653,-0.153665,0.0942584,0.1,202.753
14,27.281,-0.2075,-88.5533,-0.668496,-0.404362,-0.171013,24.1311,-0.51402,2.75785,-1.80254,-0.28663,-0.213797,0.140791,-0.0294548,-0.156148,0.1,200.382
15,29.411,-0.49304,-87.3797,-0.801765,-0.406733,-0.207381,24.555,-0.800045,2.31526,-1.15479,0.721707,-0.287301,-0.174303,0.0661876,0.0469275,0.1,197.956
16,31.5674,-0.888614,-86.2057,-0.921492,-0.437267,-0.234464,25.0149,-0.671622,1.34414,-1.45185,-0.721448,-0.535922,0.135841,-0.0767376,-0.0773366,0.1,195.481
17,33.734,-1.37301,-84.9988,-1.04326,-0.475127,-0.253732,25.4571,-0.460499,0.7759,-1.16942,0.606803,-0.238409,-0.171924,0.16499,-0.10988,0.1,192.96
18,35.9011,-1.92626,-83.7348,-1.13801,-0.517641,-0.254823,25.9022,-0.240193,-0.103027,-0.738289,-0.960291,-0.547063,0.168362,-0.0600302,0.10563,0.1,190.397
19,38.064,-2.51925,-82.3923,-1.20273,-0.585579,-0.26975,26.3507,0.752099,-0.321844,-0.769726,0.683511,-0.723132,-0.170609,-0.118562,0.0834745,0.1,187.793
20,40.2176,-3.14001,-80.9585,-1.27697,-0.625255,-0.277873,26.8157,0.995817,-0.57773,-0.791092,-0.827344,-0.104214,0.164802,0.100006,-0.0504422,0.1,185.15
21,42.3605,-3.78282,-79.4295,-1.37979,-0.617745,-0.274954,27.3435,0.0100035,-0.412384,-1.18322,0.818666,0.244742,-0.154708,0.0253926,-0.100245,0.1,182.47
22,44.495,-4.4493,-77.8097,-1.48105,-0.599095,-0.278762,27.8374,-1.17339,-0.620939,-0.863496,-0.702065,0.0218101,0.154091,0.0021353,0.00861718,0.1,179.753
23,46.6267,-5.13438,-76.1048,-1.59173,-0.628735,-0.276989,28.3803,-0.952371,-0.77276,-1.34892,0.672476,-0.550481,-0.11319,-0.129794,-0.0614237,0.1,176.998
24,48.7567,-5.82836,-74.3124,-1.67967,-0.680049,-0.256949,28.934,-0.0969443,-1.36743,-0.190461,-0.910248,-0.483966,0.159235,0.118446,0.0901995,0.1,174.207
25,50.8875,-6.51105,-72.4259,-1.7222,-0.724815,-0.273946,29.5371,0.443007,-0.650984,-0.907434,1.27151,-0.31856,-0.167383,-0.041284,-0.0920214,0.1,171.381
26,53.0048,-7.20978,-70.4409,-1.73951,-0.731401,-0.339585,30.1347,-0.319291,0.0429214,-0.289352,-0.323125,0.261823,0.13386,0.17288,-0.0329894,0.1,168.525
27,55.1016,-7.94404,-68.3607,-1.82105,-0.702112,-0.177786,30.5108,-1.10445,-3.61512,0.784205,-2.08317,-0.221282,0.169232,-0.0023093,0.149515,0.1,165.643
28,57.2529,-8.56336,-66.2071,-1.86121,-0.73317,-0.0893796,31.1173,-0.324382,-3.57829,-0.490069,0.96707,-0.687095,-0.169722,-0.145935,-0.111979,0.1,162.718
29,59.4515,-9.04993,-63.9849,-1.90762,-0.780235,-0.114914,31.8698,0.392547,-2.00264,-0.789365,-0.397466,-0.0981869,0.141333,0.0952421,-0.11742,0.1,159.765
30,61.6674,-9.47932,-61.6817,-1.99174,-0.761772,-0.10637,32.4921,-0.580709,-2.03673,-0.727551,0.144999,0.335165,-0.00638061,0.106387,-0.0888024,0.1,156.788
31,63.9128,-9.84873,-59.3086,-2.04902,-0.694732,-0.0262035,32.8622,-2.18114,-4.08628,0.665894,-1.75608,0.251727,0.174302,0.168729,0.0143652,0.1,153.783
32,66.2325,-10.084,-56.9001,-2.0515,-0.724606,-0.00237278,33.6528,-1.47325,-2.57379,-0.479924,1.65959,-0.876323,-0.168577,-0.159465,-0.0963862,0.1,150.747
33,68.5877,-10.249,-54.4382,-2.07167,-0.843347,-0.0285555,34.3814,1.27392,-0.586412,-0.360394,-0.299719,-0.905869,0.142434,-0.0274424,0.0432969,0.1,147.692
34,70.9217,-10.4261,-51.8732,-2.16455,-0.858559,0.0415437,34.9356,1.84342,-1.88944,-0.429939,-0.291441,0.155322,0.0183892,0.0706128,-0.00660873,0.1,144.631
35,73.264,-10.5438,-49.2276,-2.26747,-0.730362,0.112967,35.2984,-1.11879,-5.05653,-0.491171,-1.95135,1.05328,0.145318,0.165026,-0.124752,0.1,141.57
36,75.7078,-10.4828,-46.5836,-2.34006,-0.693981,0.0795568,36.011,-2.55861,-3.28044,-1.30981,1.80121,-0.139936,-0.148921,-0.110194,-0.0974999,0.1,138.493
37,78.2224,-10.3429,-43.9326,-2.31392,-0.791721,0.0284392,36.8293,-1.17749,-0.385636,1.03996,-0.0111305,-0.65407,0.11947,0.124104,0.113264,0.1,135.398
38,80.7238,-10.2237,-41.1866,-2.28557,-0.767135,0.14766,37.32,-0.441705,-3.43745,1.21714,-1.46297,-0.0616845,0.10188,0.141577,-0.0863806,0.1,132.308
39,83.2712,-10.0167,-38.3965,-2.24832,-0.803693,0.122824,38.109,-0.304402,-1.14381,-0.828287,2.11672,-0.27124,-0.147558,-0.0937034,-0.152132,0.1,129.223
40,85.8146,-9.82592,-35.5168,-2.14975,-0.873108,0.0124762,38.735,-0.318397,0.862411,1.12157,-0.19751,0.00355399,0.110616,0.134534,0.0923117,0.1,126.15
41,88.2911,-9.76348,-32.4961,-1.94386,-0.869001,-0.0371136,39.3597,-1.38384,0.447123,2.26511,0.739046,0.23812,-0.0505955,0.158316,-0.00783277,0.1,123.101
42,90.7231,-9.87148,-29.3616,-1.5141,-0.921377,-0.297128,39.7488,-0.207525,4.441,2.1407,2.45596,-0.664184,-0.110818,-0.0202676,0.0133485,0.1,120.058
43,93.062,-10.4315,-26.1473,-0.965625,-0.864321,-0.696122,39.4715,1.70515,8.2889,2.46715,2.50622,0.198719,-0.0850063,0.162345,-0.0222809,0.1,116.983
44,95.2843,-11.6977,-23.0239,-0.623108,-0.667614,-0.922379,39.1714,1.76878,10.0914,1.24513,2.50921,0.279818,-0.115457,-0.0744778,0.0192626,0.1,113.853
45,97.4181,-13.7202,-20.2497,-0.421502,-0.473152,-0.96861,39.4248,0.317614,9.16757,2.30947,1.29437,0.900136,-0.0663714,0.124096,0.0477377,0.1,110.677
46,99.5335,-16.3166,-17.986,-0.185565,-0.298117,-0.939899,39.5414,-0.821644,8.52412,2.6454,1.88702,0.582437,-0.133385,0.0691892,-0.0105459,0.1,107.478
47,101.742,-19.2609,-16.3434,0.0902778,-0.0645621,-0.899721,38.8754,-0.110802,10.3399,2.93711,2.67388,0.472183,-0.152266,0.133608,-0.0588778,0.1,104.243
48,104.138,-22.3456,-15.415,0.373562,-0.107149,-0.831672,39.9107,-1.03059,3.18314,2.91679,-2.82445,1.20033,0.161356,0.152346,-0.0793106,0.1,100.955
49,106.656,-25.3803,-14.7149,0.635944,-0.319436,-0.843634,39.6916,-3.98415,-3.33147,2.40188,-0.859006,0.385107,-0.0783047,0.0217542,-0.101237,0.1,97.6511
50,109.175,-28.3854,-13.8586,0.896983,-0.176703,-0.829381,40.0837,0.530717,2.17142,2.4836,2.81363,-1.84786,-0.159714,-0.155232,0.115876,0.1,94.384
51,111.863,-31.2485,-13.0756,1.0713,0.0264741,-0.653118,38.9423,4.75275,7.27603,1.19605,2.22916,0.516655,-0.039045,0.157498,-0.0926581,0.1,91.0533
52,114.925,-33.7102,-12.5563,1.09263,0.0463169,-0.372599,38.1578,1.01184,9.96357,-0.702688,2.83159,1.40012,-0.138158,-0.105337,-0.0373735,0.1,87.5259
53,118.366,-35.5796,-12.3097,1.10383,-0.0611647,-0.307941,38.8401,-2.79474,3.64164,0.853059,-2.43343,0.909598,0.156817,0.0795249,0.0428857,0.1,83.8064
54,121.965,-37.1056,-12.1278,1.18321,-0.0952314,-0.39481,38.9684,-1.28997,-0.748268,0.441346,0.708406,-0.832017,-0.159902,-0.141273,0.00815303,0.1,80.0179
55,125.588,-38.5091,-11.8864,1.22843,0.0545333,-0.256343,38.5428,3.08762,4.43691,0.293666,2.7483,-0.700599,-0.122484,-0.0567099,0.085983,0.1,76.2268
56,129.319,-39.5874,-11.7067,1.2789,0.0405335,-0.177145,38.5422,2.288,2.79139,0.695372,-1.26054,1.30469,0.140673,0.150634,0.0252954,0.1,72.3962
57,133.105,-40.3677,-11.5441,1.27962,-0.0696021,-0.136839,38.5768,-1.28558,1.39426,-0.441573,1.46505,0.83048,-0.154002,-0.113526,-0.0286417,0.1,68.5635
58,136.915,-40.9642,-11.3181,1.39408,-0.128899,-0.158389,38.5014,-2.17168,-1.24072,2.57366,-2.0933,0.282795,0.169324,0.153601,0.143875,0.1,64.726
59,140.725,-41.5181,-10.987,1.62448,-0.115835,-0.179198,38.5589,-0.676488,-1.04697,1.85377,1.64157,-0.58483,-0.162309,-0.0534109,-0.0432583,0.1,60.8782
60,144.525,-42.0501,-10.5509,1.82239,-0.0678801,-0.144697,38.524,2.00854,-1.0892,2.10752,-1.06128,-0.206605,0.140164,0.0240369,0.0730904,0.1,57.0261
61,148.323,-42.5436,-10.0264,1.98156,-0.103915,-0.070303,38.5663,2.28163,1.06694,1.21474,2.6175,0.268855,-0.174408,-0.0700094,0.0538378,0.1,53.1657
62,152.124,-42.88,-9.3656,2.14489,-0.181738,-0.020246,38.6547,1.27749,0.903611,2.20429,-0.989089,0.677231,0.157168,0.017748,0.163099,0.1,49.3001
63,155.906,-43.0596,-8.52792,2.32177,-0.26726,-0.00816928,38.7807,-0.126,1.38259,1.48528,2.18826,0.337337,-0.162728,-0.0684293,0.0141635,0.1,45.4442
64,159.653,-43.0977,-7.4723,2.44721,-0.296178,0.0135005,38.9694,0.388022,-0.156944,1.13756,-1.42666,-0.0809329,0.160764,-0.0700214,0.0419872,0.1,41.6096
65,163.375,-43.0974,-6.29915,2.56001,-0.147396,-0.161137,38.371,-1.22556,-7.52711,0.46684,-2.70103,0.898957,0.113878,0.147337,-0.168058,0.1,37.7986
66,167.164,-43.3336,-5.32417,2.69228,-0.137583,-0.205999,38.7773,-2.4319,-4.8024,2.06405,1.93502,-0.365458,-0.134061,0.0152589,0.101754,0.1,33.9261
67,170.972,-43.7224,-4.45881,2.87999,-0.171115,-0.0700544,39.1723,1.7981,-1.78723,1.97962,-0.480268,-1.44568,0.147498,-0.136494,0.131142,0.1,30.0323
68,174.79,-44.1115,-3.61442,2.98802,0.00631172,-0.0844362,38.5015,1.97708,-7.56349,0.348094,-2.80615,0.909124,0.169606,0.138332,-0.170222,0.1,26.1401
69,178.659,-44.5527,-3.05265,3.02761,0.0024402,-0.140585,39.0269,-0.289007,-4.24412,0.608058,2.5824,0.0501855,-0.170706,-0.144671,0.155893,0.1,22.2358
70,182.536,-45.0314,-2.61123,3.12758,-0.121202,-0.158488,39.2275,-1.36716,-0.376536,1.39524,-0.271303,0.43459,0.156869,0.163638,-0.0583039,0.1,18.3439
71,186.396,-45.5132,-2.08189,3.1405,0.0499765,-0.143175,38.7048,-0.674434,-6.67792,-1.11738,-2.9177,-0.607342,0.169996,-0.173953,-0.150491,0.1,14.4754
72,190.277,-46.0093,-1.81545,3.01263,0.185775,-0.11803,38.2696,1.48337,-7.64248,-1.57118,0.23662,0.129901,-0.0508525,0.0614236,-0.0941727,0.1,10.6654
73,194.135,-46.5287,-1.86468,2.85274,0.0481571,-0.126294,38.8745,0.721895,-0.934334,-1.52759,2.15745,0.56794,-0.0392314,-0.0399361,0.0399395,0.1,7.06576
74,197.99,-47.0466,-1.83864,2.7526,-0.0286999,-0.176029,38.7696,-1.63749,-0.799932,-0.463426,-1.04449,0.658946,0.15915,0.0885391,-0.00356776,0.1,4.01795
